# Time Flux Flux Error
2.229121645816422188e+03 5.323663500000000000e+06 2.477124786376953125e+02
2.229123034691191606e+03 5.325856500000000000e+06 2.477610931396484375e+02
2.229124423565845063e+03 5.328285500000000000e+06 2.477998504638671875e+02
2.229125812440498521e+03 5.330697500000000000e+06 2.478514404296875000e+02
2.229127201315151979e+03 5.331623000000000000e+06 2.478477172851562500e+02
2.229128590189805436e+03 5.331575000000000000e+06 2.478451690673828125e+02
2.229129979064458894e+03 5.330261500000000000e+06 2.477963867187500000e+02
2.229131367939228312e+03 5.327818000000000000e+06 2.477412719726562500e+02
2.229132756813881770e+03 5.325408000000000000e+06 2.476746978759765625e+02
2.229134145688535682e+03 5.322420000000000000e+06 2.475942840576171875e+02
2.229135534563071815e+03 5.321490000000000000e+06 2.475581207275390625e+02
2.229136923437725727e+03 5.321341500000000000e+06 2.475554962158203125e+02
2.229138312312379639e+03 5.322480000000000000e+06 2.475562896728515625e+02
2.229139701187032188e+03 5.326070500000000000e+06 2.476238861083984375e+02
2.229141090061686100e+03 5.328927000000000000e+06 2.476888885498046875e+02
2.229142478936340012e+03 5.331671000000000000e+06 2.477399597167968750e+02
2.229143867810877055e+03 5.333426000000000000e+06 2.477795104980468750e+02
2.229145256685530967e+03 5.334974500000000000e+06 2.477986297607421875e+02
2.229146645560184879e+03 5.334333500000000000e+06 2.477732238769531250e+02
2.229148034434721012e+03 5.331604000000000000e+06 2.476980285644531250e+02
2.229149423309374924e+03 5.328157000000000000e+06 2.476168518066406250e+02
2.229150812183912421e+03 5.323614000000000000e+06 2.475111846923828125e+02
2.229152201058564970e+03 5.319396500000000000e+06 2.474059295654296875e+02
2.229153589933102012e+03 5.316010000000000000e+06 2.473179321289062500e+02
2.229154978807755469e+03 5.314045000000000000e+06 2.472647247314453125e+02
2.229156367682292512e+03 5.315030000000000000e+06 2.472790222167968750e+02
2.229157756556945969e+03 5.317667000000000000e+06 2.473273620605468750e+02
2.229159145431483012e+03 5.321592000000000000e+06 2.474149627685546875e+02
2.229160534306020054e+03 5.327383500000000000e+06 2.475310516357421875e+02
2.229161923180557096e+03 5.331351000000000000e+06 2.476205902099609375e+02
2.229163312055210554e+03 5.335470500000000000e+06 2.476893920898437500e+02
2.229164700929746687e+03 5.335831000000000000e+06 2.476954040527343750e+02
2.229166089804284638e+03 5.336234500000000000e+06 2.476900329589843750e+02
2.229167478678822590e+03 5.332545500000000000e+06 2.476121063232421875e+02
2.229168867553359632e+03 5.328504000000000000e+06 2.475139312744140625e+02
2.229170256427896675e+03 5.324061500000000000e+06 2.474014587402343750e+02
2.229171645302433717e+03 5.320776500000000000e+06 2.473149261474609375e+02
2.229173034176969850e+03 5.317871500000000000e+06 2.472425537109375000e+02
2.229174423051507347e+03 5.316387500000000000e+06 2.472005615234375000e+02
2.229175811925928429e+03 5.317903000000000000e+06 2.472191619873046875e+02
2.229177200800464561e+03 5.319744000000000000e+06 2.472589416503906250e+02
2.229178589675002058e+03 5.322857000000000000e+06 2.473256683349609375e+02
2.229179978549539555e+03 5.326371500000000000e+06 2.473971557617187500e+02
2.229181367423959273e+03 5.329241000000000000e+06 2.474548187255859375e+02
2.229182756298496315e+03 5.330989000000000000e+06 2.475068206787109375e+02
2.229184145173033357e+03 5.330504000000000000e+06 2.474727783203125000e+02
2.229185534047453984e+03 5.330361000000000000e+06 2.474598236083984375e+02
2.229186922921991027e+03 5.328503500000000000e+06 2.474255981445312500e+02
2.229188311796412563e+03 5.326689000000000000e+06 2.473640136718750000e+02
2.229189700670949605e+03 5.324024000000000000e+06 2.473065338134765625e+02
2.229191089545370687e+03 5.322466000000000000e+06 2.472613983154296875e+02
2.229192478419907729e+03 5.322320500000000000e+06 2.472355651855468750e+02
2.229193867294327902e+03 5.322351500000000000e+06 2.472371826171875000e+02
2.229195256168748529e+03 5.322071500000000000e+06 2.472236022949218750e+02
2.229196645043169156e+03 5.323216000000000000e+06 2.472595214843750000e+02
2.229198033917706198e+03 5.325895000000000000e+06 2.473039703369140625e+02
2.229199422792126825e+03 5.328343000000000000e+06 2.473422241210937500e+02
2.229200811666547452e+03 5.328355000000000000e+06 2.473630065917968750e+02
2.229202200540967624e+03 5.330000500000000000e+06 2.473799285888671875e+02
2.229203589415388251e+03 5.328323500000000000e+06 2.473477630615234375e+02
2.229204978289809333e+03 5.326639500000000000e+06 2.473052215576171875e+02
2.229206367164229050e+03 5.324450000000000000e+06 2.472460174560546875e+02
2.229207756038650132e+03 5.321998000000000000e+06 2.471919708251953125e+02
2.229209144913071214e+03 5.320434500000000000e+06 2.471460266113281250e+02
2.229210533787490931e+03 5.318953500000000000e+06 2.471111602783203125e+02
2.229211922661912467e+03 5.319550500000000000e+06 2.471187286376953125e+02
2.229213311536334004e+03 5.320419000000000000e+06 2.471297607421875000e+02
2.229214700410637306e+03 5.322777000000000000e+06 2.471830291748046875e+02
2.229216089285058388e+03 5.325913000000000000e+06 2.472570953369140625e+02
2.229217478159479469e+03 5.327841000000000000e+06 2.473012542724609375e+02
2.229218867033782772e+03 5.330218500000000000e+06 2.473548278808593750e+02
2.229220255908203853e+03 5.331595500000000000e+06 2.473848419189453125e+02
2.229221644782624480e+03 5.331691500000000000e+06 2.473796234130859375e+02
2.229223033656928237e+03 5.330200000000000000e+06 2.473459014892578125e+02
2.229224422531348864e+03 5.327916500000000000e+06 2.472864837646484375e+02
2.229225811405653076e+03 5.324771000000000000e+06 2.472069549560546875e+02
2.229227200279957287e+03 5.321151000000000000e+06 2.471319274902343750e+02
2.229228589154377914e+03 5.318504500000000000e+06 2.470682983398437500e+02
2.229229978028682126e+03 5.317425500000000000e+06 2.470358123779296875e+02
2.229231366902985883e+03 5.317385000000000000e+06 2.470420684814453125e+02
2.229232755777406510e+03 5.318288500000000000e+06 2.470532379150390625e+02
2.229234144651711631e+03 5.321523500000000000e+06 2.471247863769531250e+02
2.229235533526016297e+03 5.324124500000000000e+06 2.471778106689453125e+02
2.229236922400320509e+03 5.327719000000000000e+06 2.472623138427734375e+02
2.229238311274624721e+03 5.330485500000000000e+06 2.473226928710937500e+02
2.229239700148928932e+03 5.332763000000000000e+06 2.473726959228515625e+02
2.229241089023233144e+03 5.334060000000000000e+06 2.473904266357421875e+02
2.229242477897537356e+03 5.331560500000000000e+06 2.473432617187500000e+02
2.229243866771840658e+03 5.328933000000000000e+06 2.472819061279296875e+02
2.229245255646144869e+03 5.324499500000000000e+06 2.471789703369140625e+02
2.229246644520449081e+03 5.320530500000000000e+06 2.470886230468750000e+02
2.229248033394753293e+03 5.317894000000000000e+06 2.470307769775390625e+02
2.229249422269057504e+03 5.315834500000000000e+06 2.469789276123046875e+02
2.229250811143245301e+03 5.315580000000000000e+06 2.469653472900390625e+02
2.229252200017549512e+03 5.317601500000000000e+06 2.470075531005859375e+02
2.229253588891852814e+03 5.320647000000000000e+06 2.470807800292968750e+02
2.229254977766041065e+03 5.323297500000000000e+06 2.471399841308593750e+02
2.229256366640345732e+03 5.327205500000000000e+06 2.472318878173828125e+02
2.229257755514649944e+03 5.330573500000000000e+06 2.473069305419921875e+02
2.229259144388838649e+03 5.331195500000000000e+06 2.473204803466796875e+02
2.229260533263142861e+03 5.332115000000000000e+06 2.473400573730468750e+02
2.229261922137330203e+03 5.330222000000000000e+06 2.472955322265625000e+02
2.229263311011517999e+03 5.327776000000000000e+06 2.472275848388671875e+02
2.229264699885822665e+03 5.324960500000000000e+06 2.471808319091796875e+02
2.229266088760009552e+03 5.321658500000000000e+06 2.471014404296875000e+02
2.229267477634197803e+03 5.320163000000000000e+06 2.470672454833984375e+02
2.229268866508502470e+03 5.319407000000000000e+06 2.470486450195312500e+02
2.229270255382689356e+03 5.320333500000000000e+06 2.470692596435546875e+02
2.229271644256877153e+03 5.321631500000000000e+06 2.470874176025390625e+02
2.229273033131064949e+03 5.323489500000000000e+06 2.471411285400390625e+02
2.229274422005252745e+03 5.324968500000000000e+06 2.471902465820312500e+02
2.229275810879440542e+03 5.326259500000000000e+06 2.471914520263671875e+02
2.229277199753628338e+03 5.327495500000000000e+06 2.472298126220703125e+02
2.229278588627816134e+03 5.327032500000000000e+06 2.472079772949218750e+02
2.229279977502004840e+03 5.325705500000000000e+06 2.471994934082031250e+02
2.229281366376193091e+03 5.325011000000000000e+06 2.471820220947265625e+02
2.229282755250380433e+03 5.324660500000000000e+06 2.471635894775390625e+02
2.229284144124568229e+03 5.323828000000000000e+06 2.471474456787109375e+02
2.229285532998639610e+03 5.323804500000000000e+06 2.471511993408203125e+02
2.229286921872827406e+03 5.323805500000000000e+06 2.471471557617187500e+02
2.229288310747015203e+03 5.324077000000000000e+06 2.471544494628906250e+02
2.229289699621086584e+03 5.324409000000000000e+06 2.471634674072265625e+02
2.229291088495273925e+03 5.325029500000000000e+06 2.471725311279296875e+02
2.229292477369461722e+03 5.325466500000000000e+06 2.471860961914062500e+02
2.229293866243533557e+03 5.326161500000000000e+06 2.472008361816406250e+02
2.229295255117720444e+03 5.325897500000000000e+06 2.471968383789062500e+02
2.229296643991792280e+03 5.325066500000000000e+06 2.471726379394531250e+02
2.229298032865980531e+03 5.325239000000000000e+06 2.471855621337890625e+02
2.229299421740051002e+03 5.324527500000000000e+06 2.471701049804687500e+02
2.229300810614122383e+03 5.324512000000000000e+06 2.471659393310546875e+02
2.229302199488310180e+03 5.324633500000000000e+06 2.471532287597656250e+02
2.229303588362382015e+03 5.323532000000000000e+06 2.471404876708984375e+02
2.229304977236454306e+03 5.322962500000000000e+06 2.471255798339843750e+02
2.229306366110526142e+03 5.321963500000000000e+06 2.471109771728515625e+02
2.229307754984596613e+03 5.321195500000000000e+06 2.470932922363281250e+02
2.229309143858784864e+03 5.321554000000000000e+06 2.470923004150390625e+02
2.229310532732856700e+03 5.322697500000000000e+06 2.471271514892578125e+02
2.229311921606927172e+03 5.324326500000000000e+06 2.471727905273437500e+02
2.229313310480998553e+03 5.326083000000000000e+06 2.472070922851562500e+02
2.229314699355069934e+03 5.327282500000000000e+06 2.472294616699218750e+02
2.229316088229024899e+03 5.328281500000000000e+06 2.472530822753906250e+02
2.229317477103096280e+03 5.327859000000000000e+06 2.472174682617187500e+02
2.229318865977167661e+03 5.326747000000000000e+06 2.472265930175781250e+02
2.229320254851239042e+03 5.326033000000000000e+06 2.471913757324218750e+02
2.229321643725310423e+03 5.325877000000000000e+06 2.471952362060546875e+02
2.229323032599265389e+03 5.325815500000000000e+06 2.471913757324218750e+02
2.229324421473335860e+03 5.325163000000000000e+06 2.471810150146484375e+02
2.229325810347408151e+03 5.325092000000000000e+06 2.471802520751953125e+02
2.229327199221364026e+03 5.324808000000000000e+06 2.471694488525390625e+02
2.229328588095435407e+03 5.323791000000000000e+06 2.471536102294921875e+02
2.229329976969506788e+03 5.322175000000000000e+06 2.471156463623046875e+02
2.229331365843461754e+03 5.321425500000000000e+06 2.470903930664062500e+02
2.229332754717415810e+03 5.320541500000000000e+06 2.470781250000000000e+02
2.229334143591487646e+03 5.320637500000000000e+06 2.470411376953125000e+02
2.229335532465443066e+03 5.320011500000000000e+06 2.470583343505859375e+02
2.229336921339513538e+03 5.320321000000000000e+06 2.470679626464843750e+02
2.229338310213468958e+03 5.321195500000000000e+06 2.470916442871093750e+02
2.229339699087424378e+03 5.323536500000000000e+06 2.471484832763671875e+02
2.229341087961378435e+03 5.325800000000000000e+06 2.471900177001953125e+02
2.229342476835449816e+03 5.328940500000000000e+06 2.472666320800781250e+02
2.229343865709404781e+03 5.330917500000000000e+06 2.473060302734375000e+02
2.229345254583359747e+03 5.332322000000000000e+06 2.473408355712890625e+02
2.229346643457314713e+03 5.331982000000000000e+06 2.473284301757812500e+02
2.229348032331270588e+03 5.329904500000000000e+06 2.472669982910156250e+02
2.229349421205225553e+03 5.325774500000000000e+06 2.471921997070312500e+02
2.229350810079180974e+03 5.321682000000000000e+06 2.471060638427734375e+02
2.229352198953135940e+03 5.318027500000000000e+06 2.470133209228515625e+02
2.229353587827090450e+03 5.316045000000000000e+06 2.469666900634765625e+02
2.229354976700929001e+03 5.314003000000000000e+06 2.469142303466796875e+02
2.229356365574883966e+03 5.314470500000000000e+06 2.469345397949218750e+02
2.229357754448838932e+03 5.315846000000000000e+06 2.469568328857421875e+02
2.229359143322793898e+03 5.318603500000000000e+06 2.470278625488281250e+02
2.229360532196632448e+03 5.323659500000000000e+06 2.471322479248046875e+02
2.229361921070586959e+03 5.328618000000000000e+06 2.472299041748046875e+02
2.229363309944541925e+03 5.332497000000000000e+06 2.473208618164062500e+02
2.229364698818380930e+03 5.334739000000000000e+06 2.473795623779296875e+02
2.229366087692334986e+03 5.334808000000000000e+06 2.474011535644531250e+02
2.229367476566173991e+03 5.332625500000000000e+06 2.473495483398437500e+02
2.229368865440129412e+03 5.329136500000000000e+06 2.472658538818359375e+02
2.229370254313967052e+03 5.324679000000000000e+06 2.471644897460937500e+02
2.229371643187806512e+03 5.319236000000000000e+06 2.470432434082031250e+02
2.229373032061762387e+03 5.315741500000000000e+06 2.469598693847656250e+02
2.229374420935600028e+03 5.313283000000000000e+06 2.469053192138671875e+02
2.229375809809439033e+03 5.313772000000000000e+06 2.469140472412109375e+02
2.229377198683394454e+03 5.315859500000000000e+06 2.469630432128906250e+02
2.229378587557232095e+03 5.319647500000000000e+06 2.470252685546875000e+02
2.229379976431071100e+03 5.323970500000000000e+06 2.471451721191406250e+02
2.229381365304909650e+03 5.328531000000000000e+06 2.472583770751953125e+02
2.229382754178747746e+03 5.331264500000000000e+06 2.473195343017578125e+02
2.229384143052586296e+03 5.332829500000000000e+06 2.473511199951171875e+02
2.229385531926424846e+03 5.332483000000000000e+06 2.473410797119140625e+02
2.229386920800263397e+03 5.329289500000000000e+06 2.472744598388671875e+02
2.229388309674101947e+03 5.325508500000000000e+06 2.471798095703125000e+02
2.229389698547940498e+03 5.320394500000000000e+06 2.470690155029296875e+02
2.229391087421778593e+03 5.316270500000000000e+06 2.469660186767578125e+02
2.229392476295500728e+03 5.313938000000000000e+06 2.469267425537109375e+02
2.229393865169340188e+03 5.313554000000000000e+06 2.469113464355468750e+02
2.229395254043179193e+03 5.315983500000000000e+06 2.469487304687500000e+02
2.229396642917017743e+03 5.317633500000000000e+06 2.470017547607421875e+02
2.229398031790739878e+03 5.322240500000000000e+06 2.471030426025390625e+02
2.229399420664578429e+03 5.326281500000000000e+06 2.472070159912109375e+02
2.229400809538300564e+03 5.330344000000000000e+06 2.472953796386718750e+02
2.229402198412139114e+03 5.333263500000000000e+06 2.473607940673828125e+02
2.229403587285860340e+03 5.334543000000000000e+06 2.473941345214843750e+02
2.229404976159699345e+03 5.333765000000000000e+06 2.473728332519531250e+02
2.229406365033421935e+03 5.331311500000000000e+06 2.473253784179687500e+02
2.229407753907259575e+03 5.327471500000000000e+06 2.472324981689453125e+02
2.229409142780982165e+03 5.322514500000000000e+06 2.471143188476562500e+02
2.229410531654704300e+03 5.318877000000000000e+06 2.470233764648437500e+02
2.229411920528542396e+03 5.315246000000000000e+06 2.469548034667968750e+02
2.229413309402264531e+03 5.313919500000000000e+06 2.469148101806640625e+02
2.229414698275986666e+03 5.314335500000000000e+06 2.469217987060546875e+02
2.229416087149708801e+03 5.315818000000000000e+06 2.469653167724609375e+02
2.229417476023431846e+03 5.318443500000000000e+06 2.470192413330078125e+02
2.229418864897154890e+03 5.322700000000000000e+06 2.471134948730468750e+02
2.229420253770876116e+03 5.327281000000000000e+06 2.472105560302734375e+02
2.229421642644598251e+03 5.329879000000000000e+06 2.472832336425781250e+02
2.229423031518320386e+03 5.332369500000000000e+06 2.473385925292968750e+02
2.229424420392042521e+03 5.332196000000000000e+06 2.473417816162109375e+02
2.229425809265764656e+03 5.332335000000000000e+06 2.473417510986328125e+02
2.229427198139486791e+03 5.329739500000000000e+06 2.472800292968750000e+02
2.229428587013208926e+03 5.327399500000000000e+06 2.472270507812500000e+02
2.229429975886931061e+03 5.322857500000000000e+06 2.471229400634765625e+02
2.229431364760536781e+03 5.318699500000000000e+06 2.470277862548828125e+02
2.229432753634258006e+03 5.315732500000000000e+06 2.469570312500000000e+02
2.229434142507980141e+03 5.313886000000000000e+06 2.469239654541015625e+02
2.229435531381585861e+03 5.314594000000000000e+06 2.469289093017578125e+02
2.229436920255307996e+03 5.316160000000000000e+06 2.469666290283203125e+02
2.229438309128913716e+03 5.318849500000000000e+06 2.470339660644531250e+02
2.229439698002636760e+03 5.322812000000000000e+06 2.471231079101562500e+02
2.229441086876242935e+03 5.325737500000000000e+06 2.471764373779296875e+02
2.229442475749964615e+03 5.328719000000000000e+06 2.472521057128906250e+02
2.229443864623570335e+03 5.331108000000000000e+06 2.473123168945312500e+02
2.229445253497292470e+03 5.332053000000000000e+06 2.473294372558593750e+02
2.229446642370898189e+03 5.330839500000000000e+06 2.473040771484375000e+02
2.229448031244503909e+03 5.329293500000000000e+06 2.472680053710937500e+02
2.229449420118226044e+03 5.326956500000000000e+06 2.472176055908203125e+02
2.229450808991831309e+03 5.323899500000000000e+06 2.471435089111328125e+02
2.229452197865437029e+03 5.322663500000000000e+06 2.471106109619140625e+02
2.229453586739043203e+03 5.320882000000000000e+06 2.470744018554687500e+02
2.229454975612648013e+03 5.319714000000000000e+06 2.470485076904296875e+02
2.229456364486254188e+03 5.319978000000000000e+06 2.470555725097656250e+02
2.229457753359860362e+03 5.319616000000000000e+06 2.470562896728515625e+02
2.229459142233465172e+03 5.320386000000000000e+06 2.470702514648437500e+02
2.229460531107070892e+03 5.321127500000000000e+06 2.470899353027343750e+02
2.229461919980676612e+03 5.322418000000000000e+06 2.470974578857421875e+02
2.229463308854282786e+03 5.323319000000000000e+06 2.471343536376953125e+02
2.229464697727889416e+03 5.323383500000000000e+06 2.471327209472656250e+02
2.229466086601495590e+03 5.324491000000000000e+06 2.471542663574218750e+02
2.229467475474983985e+03 5.326239500000000000e+06 2.472061462402343750e+02
2.229468864348590159e+03 5.327508000000000000e+06 2.472262115478515625e+02
2.229470253222196334e+03 5.328511000000000000e+06 2.472378540039062500e+02
2.229471642095684729e+03 5.328776500000000000e+06 2.472510681152343750e+02
2.229473030969290448e+03 5.327827500000000000e+06 2.472299499511718750e+02
2.229474419842896168e+03 5.326709500000000000e+06 2.472046966552734375e+02
2.229475808716385473e+03 5.325596000000000000e+06 2.471746673583984375e+02
2.229477197589991192e+03 5.323045000000000000e+06 2.471226348876953125e+02
2.229478586463480497e+03 5.321662500000000000e+06 2.470828857421875000e+02
2.229479975337086216e+03 5.319529500000000000e+06 2.470481414794921875e+02
2.229481364210575521e+03 5.318844000000000000e+06 2.470245819091796875e+02
2.229482753084064825e+03 5.318479000000000000e+06 2.470209960937500000e+02
2.229484141957669635e+03 5.319037500000000000e+06 2.470236663818359375e+02
